coc50kGe311 15" 9.5g sample, C Can, Vanadium  2K                           test 
Instrument parameter file:test.inst                                             
BANK  1     3266     654 CONST     300.00      5.00 0 0 ESD                     
    352.     39.    325.     37.    308.     36.    370.     40.    303.     36.
    325.     37.    240.     32.    214.     30.    254.     33.    249.     32.
    276.     34.    290.     35.    281.     34.    227.     31.    281.     34.
    263.     33.    254.     33.    263.     33.    240.     32.    276.     34.
    218.     30.    227.     31.    245.     32.    254.     33.    249.     32.
    240.     32.    245.     32.    218.     30.    249.     32.    263.     33.
    227.     31.    249.     32.    160.     25.    223.     30.    272.     34.
    227.     31.    232.     31.    258.     33.    249.     32.    187.     28.
    178.     27.    191.     28.    191.     28.    178.     27.    223.     30.
    196.     28.    236.     31.    245.     32.    227.     31.    249.     32.
    191.     28.    272.     34.    182.     27.    227.     31.    200.     29.
    249.     32.    196.     28.    223.     30.    232.     31.    218.     30.
    205.     29.    196.     28.    218.     30.    169.     26.    254.     33.
    200.     29.    191.     28.    209.     29.    205.     29.    187.     28.
    178.     27.    142.     24.    209.     29.    191.     28.    191.     28.
    218.     30.    196.     28.    218.     30.    227.     31.    205.     29.
    191.     28.    155.     25.    205.     29.    245.     32.    236.     31.
    218.     30.    218.     30.    164.     26.    178.     27.    200.     29.
    240.     32.    191.     28.    214.     30.    236.     31.    209.     29.
    245.     32.    209.     29.    200.     29.    200.     29.    227.     31.
    228.     21.    219.     20.    224.     21.    252.     22.    234.     21.
    199.     19.    223.     21.    232.     21.    209.     20.    180.     18.
    188.     19.    179.     18.    179.     18.    229.     21.    189.     19.
    191.     19.    192.     19.    175.     18.    206.     20.    223.     21.
    198.     19.    177.     18.    183.     18.    213.     20.    218.     20.
    177.     18.    188.     19.    205.     20.    191.     19.    189.     19.
    190.     19.    223.     21.    166.     18.    226.     21.    205.     20.
    209.     20.    191.     19.    202.     20.    211.     20.    206.     20.
    185.     19.    188.     19.    168.     18.    179.     18.    168.     18.
    197.     19.    196.     19.    187.     19.    172.     18.    166.     17.
    200.     19.    218.     20.    197.     19.    186.     19.    192.     19.
    211.     20.    198.     19.    224.     21.    191.     19.    193.     19.
    198.     19.    176.     18.    198.     19.    147.     16.    180.     18.
    186.     19.    184.     25.    217.     28.    175.     24.    179.     25.
    221.     28.    167.     24.    175.     24.    174.     24.    210.     27.
    208.     27.    194.     26.    177.     25.    232.     29.    187.     25.
    185.     25.    216.     28.    198.     26.    178.     25.    231.     29.
    221.     28.    175.     24.    220.     28.    240.     29.    228.     29.
    204.     27.    162.     23.    217.     28.    208.     27.    204.     27.
    214.     28.    213.     27.    208.     27.    186.     25.    147.     22.
    161.     17.    184.     18.    199.     19.    202.     19.    198.     19.
    199.     19.    207.     19.    168.     17.    203.     19.    187.     18.
    213.     20.    185.     18.    188.     18.    185.     18.    191.     19.
    195.     19.    217.     20.    224.     20.    202.     19.    210.     20.
    221.     20.    183.     18.    214.     20.    214.     20.    199.     19.
    194.     19.    187.     18.    208.     20.    191.     19.    178.     18.
    179.     18.    175.     18.    163.     17.    184.     18.    178.     18.
    166.     17.    199.     19.    208.     20.    180.     18.    173.     18.
    200.     19.    183.     18.    186.     18.    196.     19.    194.     19.
    201.     19.    194.     19.    197.     19.    196.     19.    178.     18.
    183.     18.    204.     19.    215.     20.    212.     20.    182.     18.
    179.     18.    174.     18.    206.     19.    189.     19.    186.     18.
    209.     20.    221.     20.    188.     18.    173.     18.    217.     20.
    193.     19.    195.     27.    211.     19.    205.     19.    225.     20.
    229.     20.    209.     19.    217.     20.    197.     19.    193.     18.
    208.     19.    195.     18.    214.     19.    174.     17.    206.     19.
    184.     18.    212.     19.    197.     18.    206.     19.    197.     19.
    207.     19.    214.     19.    185.     18.    210.     19.    188.     18.
    196.     18.    190.     18.    195.     18.    197.     19.    176.     17.
    154.     16.    176.     17.    188.     18.    153.     16.    202.     19.
    180.     18.    193.     18.    176.     17.    198.     19.    203.     19.
    187.     18.    187.     18.    223.     20.    194.     18.    213.     19.
    226.     20.    225.     20.    196.     18.    184.     18.    184.     18.
    180.     18.    193.     18.    208.     19.    199.     19.    207.     19.
    220.     20.    238.     21.    236.     21.    215.     19.    223.     20.
    213.     19.    218.     20.    205.     19.    197.     19.    212.     19.
    208.     19.    204.     19.    211.     19.    197.     19.    211.     19.
    213.     19.    201.     19.    192.     18.    207.     19.    194.     18.
    214.     19.    204.     19.    205.     19.    188.     18.    189.     18.
    212.     19.    192.     18.    212.     19.    208.     19.    213.     19.
    201.     19.    193.     18.    211.     19.    210.     19.    189.     18.
    239.     21.    204.     19.    205.     19.    204.     19.    220.     20.
    214.     19.    243.     21.    205.     19.    193.     18.    203.     19.
    220.     20.    203.     19.    203.     19.    220.     19.    207.     19.
    188.     18.    183.     17.    209.     19.    202.     18.    197.     18.
    219.     19.    230.     20.    208.     19.    182.     17.    188.     18.
    220.     19.    226.     20.    209.     19.    230.     20.    219.     19.
    189.     18.    200.     18.    203.     19.    194.     18.    226.     20.
    189.     18.    194.     18.    186.     18.    197.     18.    216.     19.
    215.     19.    228.     20.    225.     20.    228.     20.    250.     21.
    224.     19.    208.     19.    225.     20.    197.     18.    200.     18.
    212.     19.    215.     19.    227.     20.    206.     19.    217.     19.
    246.     21.    236.     20.    211.     19.    249.     21.    238.     20.
    255.     21.    265.     21.    243.     20.    254.     21.    239.     20.
    238.     20.    259.     21.    229.     20.    254.     21.    219.     19.
    227.     20.    227.     20.    239.     20.    290.     22.    305.     23.
    341.     24.    361.     25.    511.     30.    661.     34.    888.     40.
   1301.     49.   1869.     58.   2532.     68.   3081.     75.   3082.     75.
   2627.     69.   1930.     59.   1166.     46.    730.     36.    438.     28.
    325.     24.    271.     22.    266.     21.    258.     21.    257.     21.
    259.     21.    282.     22.    238.     20.    252.     21.    259.     21.
    232.     20.    251.     21.    256.     21.    257.     21.    227.     20.
    260.     21.    243.     20.    253.     21.    277.     22.    259.     21.
    244.     20.    238.     20.    268.     22.    232.     20.    231.     20.
    242.     20.    250.     21.    271.     22.    281.     22.    262.     21.
    262.     21.    237.     20.    249.     21.    248.     21.    247.     21.
    248.     21.    282.     22.    279.     22.    323.     24.    338.     24.
    347.     25.    308.     23.    289.     22.    265.     21.    255.     21.
    286.     22.    285.     22.    281.     22.    255.     21.    263.     21.
    251.     21.    260.     21.    292.     23.    281.     22.    260.     21.
    259.     21.    241.     20.    254.     21.    252.     21.    225.     20.
    227.     20.    260.     21.    270.     22.    259.     21.    271.     22.
    261.     21.    253.     21.    252.     21.    262.     21.    267.     21.
    289.     22.    294.     23.    294.     23.    299.     23.    286.     22.
    258.     21.    266.     21.    286.     22.    258.     21.    250.     21.
    253.     21.    267.     22.    241.     20.    236.     20.    247.     21.
    258.     21.    264.     21.    249.     21.    248.     21.    248.     21.
    242.     20.    248.     21.    243.     20.    231.     20.    257.     21.
    228.     20.    237.     20.    250.     21.    235.     20.    220.     19.
    243.     20.    238.     20.    212.     19.    219.     19.    219.     19.
    225.     20.    189.     18.    205.     19.    221.     19.    243.     20.
    238.     20.    235.     20.    234.     20.    233.     20.    221.     19.
    206.     19.    216.     19.    221.     19.    255.     21.    239.     20.
    214.     19.    236.     19.    223.     19.    215.     18.    218.     18.
    226.     19.    210.     18.    203.     18.    235.     19.    238.     19.
    215.     18.    213.     18.    200.     18.    219.     19.    243.     20.
    223.     19.    233.     19.    202.     18.    218.     18.    191.     17.
    197.     18.    185.     17.    214.     18.    217.     18.    197.     18.
    210.     18.    222.     19.    246.     20.    225.     19.    204.     18.
    215.     18.    208.     18.    173.     16.    183.     17.    201.     18.
    201.     18.    214.     18.    210.     18.    188.     17.    226.     19.
    221.     19.    204.     18.    230.     19.    248.     20.    217.     18.
    195.     17.    205.     18.    212.     18.    193.     17.    179.     17.
    188.     17.    184.     17.    190.     17.    198.     18.    190.     17.
    183.     17.    179.     17.    182.     17.    206.     18.    198.     18.
    195.     17.    191.     17.    182.     17.    197.     18.    199.     18.
    203.     18.    226.     19.    200.     18.    191.     17.    177.     17.
    177.     16.    200.     18.    192.     17.    198.     18.    184.     17.
    186.     17.    207.     18.    198.     18.    202.     18.    181.     17.
    186.     17.    178.     17.    184.     17.    192.     17.    183.     17.
    187.     17.    220.     19.    217.     18.    191.     17.    160.     16.
    171.     16.    184.     17.    176.     16.    177.     17.    171.     16.
    166.     16.    170.     16.    187.     17.    221.     19.    195.     17.
    193.     17.    187.     13.    213.     17.    175.     15.    163.     15.
    166.     15.    182.     16.    194.     16.    188.     16.    183.     16.
    150.     14.    182.     16.    185.     16.    171.     15.    203.     17.
    185.     16.    194.     16.    180.     16.    173.     15.    174.     15.
    190.     16.    195.     16.    198.     16.    198.     16.    201.     17.
    184.     16.    188.     16.    188.     16.    178.     15.    182.     16.
    191.     16.    196.     16.    188.     16.    190.     16.    190.     16.
    178.     15.    183.     16.    180.     16.    174.     15.    163.     15.
    162.     15.    180.     16.    181.     16.    162.     15.    183.     16.
    199.     16.    173.     15.    178.     15.    187.     16.    166.     15.
    156.     14.    171.     15.    203.     17.    184.     16.    168.     15.
    199.     16.    188.     16.    168.     15.    181.     16.    168.     15.
    179.     16.    187.     16.    158.     14.    154.     14.    161.     15.
    151.     14.    159.     15.    171.     15.    163.     15.    170.     15.
    159.     15.    184.     16.    179.     16.    196.     16.    201.     17.
    206.     17.    168.     15.    168.     15.    191.     16.    154.     14.
    173.     15.    163.     15.    173.     15.    179.     15.    155.     14.
    179.     16.    168.     15.    163.     15.    165.     15.    176.     15.
    185.     16.    196.     16.    197.     16.    191.     16.    208.     17.
    257.     19.    322.     21.    402.     24.    601.     29.    895.     36.
   1082.     39.   1237.     40.   1049.     37.    831.     32.    583.     27.
    375.     22.    252.     18.    206.     16.    216.     16.    199.     15.
    163.     14.    180.     15.    171.     14.    195.     15.    172.     14.
    181.     15.    209.     16.    162.     14.    162.     14.    170.     14.
    179.     15.    188.     15.    175.     14.    151.     13.    164.     14.
    172.     14.    183.     15.    155.     14.    165.     14.    173.     14.
    150.     13.    178.     15.    174.     14.    177.     15.    187.     15.
    166.     14.    178.     15.    184.     15.    171.     14.    183.     15.
    165.     14.    156.     14.    167.     14.    197.     15.    183.     15.
    176.     15.    188.     15.    203.     16.    199.     16.    203.     16.
    210.     16.    184.     15.    165.     14.    169.     14.    151.     13.
    161.     14.    158.     14.    165.     14.    157.     14.    171.     14.
    179.     15.    161.     14.    171.     14.    173.     14.    169.     14.
    165.     14.    154.     14.    151.     13.    152.     13.    153.     13.
    176.     15.    169.     14.    151.     13.    172.     14.    172.     14.
    160.     14.    146.     13.    155.     14.    172.     14.    142.     13.
    169.     14.    165.     14.    151.     13.    156.     14.    166.     14.
    168.     14.    154.     14.    150.     13.    156.     14.    150.     13.
    145.     13.    154.     14.    152.     13.    164.     14.    185.     15.
    162.     14.    165.     14.    166.     14.    161.     14.    176.     15.
    154.     14.    162.     13.    162.     13.    171.     14.    179.     14.
    153.     13.    154.     13.    170.     14.    175.     14.    158.     13.
    157.     13.    167.     13.    159.     13.    148.     13.    156.     13.
    160.     13.    173.     14.    160.     13.    161.     13.    143.     12.
    164.     13.    154.     13.    144.     12.    149.     13.    161.     13.
    162.     13.    158.     13.    159.     13.    148.     13.    159.     13.
    164.     13.    166.     13.    161.     13.    144.     12.    181.     14.
    196.     15.    214.     15.    205.     15.    187.     14.    188.     14.
    176.     14.    172.     14.    185.     14.    190.     14.    200.     15.
    190.     14.    204.     15.    293.     18.    367.     20.    554.     25.
    861.     31.   1165.     36.   1283.     38.   1205.     37.    934.     32.
    661.     27.    411.     21.    270.     17.    205.     15.    197.     15.
    190.     14.    169.     14.    182.     14.    157.     13.    159.     13.
    177.     14.    169.     14.    149.     13.    162.     13.    172.     14.
    173.     14.    163.     13.    178.     14.    167.     13.    147.     13.
    162.     13.    159.     13.    159.     13.    161.     13.    174.     14.
    171.     14.    175.     14.    182.     14.    172.     14.    172.     14.
    167.     13.    184.     14.    177.     14.    181.     14.    190.     14.
    186.     14.    211.     15.    290.     18.    443.     22.    696.     28.
   1206.     37.   2135.     49.   3149.     60.   3991.     67.   4170.     69.
   3559.     64.   2265.     48.   1319.     36.    735.     27.    408.     20.
    303.     17.    227.     15.    183.     13.    170.     13.    161.     12.
    180.     13.    178.     13.    176.     13.    152.     12.    153.     12.
    178.     13.    166.     13.    160.     12.    159.     12.    165.     13.
    164.     13.    173.     13.    167.     13.    143.     12.    166.     13.
    160.     12.    181.     13.    193.     14.    205.     14.    209.     14.
    179.     13.    196.     14.    190.     14.    188.     14.    168.     13.
    189.     14.    183.     13.    165.     13.    147.     12.    156.     12.
    143.     12.    147.     12.    170.     13.    173.     13.    175.     13.
    178.     13.    168.     13.    172.     13.    146.     12.    173.     13.
    160.     12.    136.     11.    160.     12.    163.     13.    157.     12.
    164.     13.    165.     13.    184.     13.    181.     13.    164.     13.
    165.     13.    156.     12.    172.     13.    142.     12.    171.     13.
    192.     14.    173.     13.    155.     12.    168.     13.    162.     13.
    159.     12.    167.     13.    164.     13.    147.     12.    144.     12.
    149.     12.    157.     12.    171.     13.    160.     12.    167.     13.
    162.     13.    182.     13.    193.     14.    186.     13.    213.     14.
    213.     14.    224.     15.    205.     14.    188.     14.    202.     14.
    177.     13.    173.     13.    191.     14.    180.     13.    169.     13.
    153.     12.    166.     13.    165.     13.    178.     13.    158.     12.
    152.     12.    147.     12.    164.     12.    135.     11.    159.     12.
    152.     12.    160.     12.    176.     13.    171.     13.    146.     12.
    154.     12.    177.     13.    145.     12.    182.     13.    172.     13.
    195.     14.    203.     14.    177.     13.    180.     13.    190.     13.
    161.     12.    182.     13.    155.     12.    134.     11.    153.     12.
    139.     11.    142.     11.    147.     12.    161.     12.    170.     13.
    144.     12.    155.     12.    178.     13.    158.     12.    149.     12.
    158.     12.    174.     13.    146.     12.    163.     12.    185.     13.
    179.     13.    162.     12.    157.     12.    159.     12.    159.     12.
    163.     12.    167.     12.    160.     12.    138.     11.    158.     12.
    170.     13.    148.     12.    152.     12.    165.     12.    176.     13.
    170.     13.    174.     13.    173.     13.    192.     13.    171.     13.
    194.     13.    183.     13.    178.     13.    231.     15.    299.     17.
    377.     19.    620.     24.   1104.     32.   1966.     43.   3287.     56.
   4860.     68.   6266.     78.   6888.     81.   6270.     78.   4812.     68.
   3180.     55.   1839.     42.    985.     31.    624.     24.    438.     20.
    342.     18.    270.     16.    234.     15.    182.     13.    187.     13.
    193.     13.    161.     12.    156.     12.    179.     13.    161.     12.
    180.     13.    169.     13.    160.     12.    158.     12.    144.     12.
    168.     13.    139.     11.    171.     13.    171.     13.    152.     12.
    139.     11.    166.     12.    160.     12.    143.     11.    158.     12.
    176.     12.    164.     12.    193.     13.    184.     13.    203.     13.
    256.     15.    288.     16.    318.     17.    366.     18.    366.     18.
    306.     16.    297.     16.    206.     13.    190.     13.    155.     12.
    156.     12.    165.     12.    154.     12.    160.     12.    171.     12.
    156.     12.    166.     12.    149.     11.    142.     11.    160.     12.
    155.     12.    157.     12.    179.     13.    150.     11.    145.     11.
    162.     12.    152.     12.    155.     12.    158.     12.    154.     12.
    179.     13.    175.     12.    152.     12.    157.     12.    154.     12.
    159.     12.    178.     13.    175.     12.    144.     11.    157.     12.
    153.     12.    154.     12.    157.     12.    139.     11.    147.     11.
    157.     12.    152.     12.    159.     12.    156.     12.    174.     12.
    152.     12.    150.     11.    146.     11.    176.     12.    158.     12.
    165.     12.    155.     12.    155.     12.    152.     12.    160.     12.
    154.     12.    172.     12.    159.     12.    152.     12.    147.     11.
    160.     12.    150.     11.    166.     12.    162.     12.    164.     12.
    133.     11.    150.     11.    153.     12.    172.     12.    182.     13.
    175.     12.    186.     13.    232.     14.    289.     16.    408.     19.
    496.     21.    631.     24.    689.     25.    676.     24.    561.     22.
    397.     19.    320.     17.    224.     14.    196.     13.    153.     12.
    178.     13.    165.     17.    160.     11.    155.     11.    149.     11.
    144.     11.    144.     11.    149.     11.    157.     11.    154.     11.
    157.     11.    147.     11.    143.     11.    156.     11.    168.     12.
    158.     11.    160.     11.    165.     12.    159.     11.    166.     12.
    169.     12.    152.     11.    155.     11.    163.     11.    166.     12.
    154.     11.    156.     11.    179.     12.    181.     12.    171.     12.
    175.     12.    172.     12.    161.     11.    166.     12.    184.     12.
    162.     11.    149.     11.    143.     11.    137.     11.    144.     11.
    141.     11.    153.     11.    162.     11.    134.     10.    133.     10.
    135.     10.    138.     11.    141.     11.    148.     11.    146.     11.
    144.     11.    136.     11.    141.     11.    138.     11.    144.     11.
    150.     11.    146.     11.    145.     11.    145.     11.    145.     11.
    164.     12.    172.     12.    158.     11.    162.     11.    166.     12.
    170.     12.    155.     11.    141.     11.    149.     11.    145.     11.
    142.     11.    144.     11.    148.     11.    143.     11.    153.     11.
    153.     11.    153.     11.    148.     11.    142.     11.    135.     10.
    140.     11.    152.     11.    159.     11.    156.     11.    152.     11.
    146.     11.    155.     11.    149.     11.    159.     11.    153.     11.
    154.     11.    153.     11.    143.     11.    146.     11.    141.     11.
    147.     11.    144.     11.    137.     11.    152.     11.    152.     11.
    146.     11.    149.     11.    146.     11.    143.     11.    130.     10.
    151.     11.    144.     11.    149.     11.    143.     11.    149.     11.
    138.     11.    153.     11.    150.     11.    147.     11.    135.     10.
    143.     11.    152.     11.    151.     11.    165.     12.    148.     11.
    152.     11.    152.     11.    150.     11.    151.     11.    154.     11.
    150.     11.    144.     11.    148.     11.    155.     11.    159.     11.
    161.     11.    149.     11.    129.     10.    136.     11.    150.     11.
    145.     11.    141.     11.    151.     11.    156.     11.    162.     11.
    144.     11.    161.     11.    151.     11.    139.     11.    154.     11.
    156.     11.    154.     11.    143.     11.    153.     11.    136.     11.
    162.     11.    153.     11.    149.     11.    156.     11.    156.     11.
    149.     11.    146.     11.    148.     11.    164.     12.    148.     11.
    158.     11.    151.     11.    143.     11.    155.     11.    165.     12.
    167.     12.    156.     11.    158.     11.    143.     11.    128.     10.
    140.     11.    151.     11.    136.     11.    162.     12.    150.     11.
    172.     12.    195.     13.    213.     13.    287.     15.    336.     17.
    398.     18.    416.     18.    442.     19.    402.     18.    344.     17.
    290.     15.    220.     13.    192.     13.    172.     12.    165.     12.
    170.     12.    156.     11.    163.     12.    143.     11.    160.     11.
    157.     11.    165.     12.    162.     11.    143.     11.    165.     12.
    157.     11.    157.      9.    149.     11.    138.     11.    145.     11.
    153.     11.    167.     12.    176.     12.    141.     11.    148.     11.
    170.     12.    163.     11.    159.     11.    167.     12.    151.     11.
    152.     11.    150.     11.    151.     11.    162.     11.    151.     11.
    154.     11.    151.     11.    151.     11.    148.     11.    150.     11.
    143.     11.    141.     11.    135.     10.    135.     10.    152.     11.
    140.     11.    152.     11.    174.     12.    137.     11.    163.     11.
    133.     10.    152.     11.    142.     11.    146.     11.    155.     11.
    138.     11.    123.     10.    138.     11.    145.     11.    135.     10.
    141.     11.    136.     10.    139.     11.    145.     11.    153.     11.
    139.     11.    149.     11.    147.     11.    140.     11.    151.     11.
    135.     10.    135.     10.    135.     10.    126.     10.    137.     11.
    144.     11.    144.     11.    143.     11.    145.     11.    153.     11.
    136.     10.    145.     11.    152.     11.    155.     11.    150.     11.
    154.     11.    149.     11.    149.     11.    153.     11.    163.     11.
    152.     11.    161.     11.    174.     12.    176.     12.    177.     12.
    185.     12.    207.     13.    232.     14.    274.     15.    355.     17.
    533.     21.    770.     25.   1099.     30.   1506.     35.   2000.     40.
   2339.     43.   2562.     46.   2405.     44.   2091.     41.   1580.     36.
   1147.     30.    788.     25.    533.     21.    370.     17.    271.     15.
    252.     14.    203.     18.    193.     12.    170.     11.    166.     11.
    161.     11.    137.     10.    160.     11.    156.     11.    147.     11.
    142.     10.    152.     11.    142.     10.    133.     10.    133.     10.
    142.     10.    134.     10.    138.     10.    150.     11.    141.     10.
    139.     10.    145.     10.    176.     12.    139.     10.    140.     10.
    145.     11.    154.     11.    157.     11.    146.     11.    138.     10.
    144.     10.    121.     10.    132.     10.    117.      9.    141.     10.
    131.     10.    133.     10.    134.     10.    140.     10.    145.     10.
    141.     10.    137.     10.    147.     11.    149.     11.    135.     10.
    150.     11.    149.     11.    134.     10.    139.     10.    133.     10.
    142.     10.    132.     10.    140.     10.    131.     10.    161.     11.
    153.     11.    164.     11.    123.     10.    135.     10.    129.     10.
    126.     10.    118.      9.    130.     10.    145.     11.    133.     10.
    136.     10.    142.     10.    150.     11.    130.     10.    127.     10.
    140.     10.    140.     10.    134.     10.    159.     11.    123.     10.
    129.     10.    131.     10.    131.     10.    125.     10.    141.     10.
    121.     10.    143.     10.    146.     11.    134.     10.    142.     10.
    130.     10.    133.     10.    134.     10.    131.     10.    109.      9.
    137.     10.    132.     10.    142.     10.    117.      9.    136.     10.
    135.     10.    130.     10.    141.     10.    138.     10.    144.     10.
    142.     10.    116.      9.    117.      9.    131.     10.    135.     10.
    149.     11.    143.     10.    137.     10.    140.     10.    132.     10.
    153.     11.    151.     11.    124.     10.    137.     10.    152.     11.
    130.     10.    135.     10.    151.     11.    147.     11.    173.     12.
    134.     10.    144.     11.    152.     11.    135.     10.    132.     10.
    151.     11.    143.     10.    139.     10.    159.     11.    129.     10.
    134.     10.    126.     10.    129.     10.    127.     10.    139.     10.
    111.      9.    152.     11.    136.     10.    159.     11.    120.     10.
    128.     10.    129.     10.    119.     10.    136.     10.    139.     10.
    157.     11.    144.     11.    136.     10.    154.     11.    145.     11.
    147.     11.    140.     10.    132.     10.    170.     11.    153.     11.
    150.     11.    170.     11.    183.     12.    207.     13.    234.     13.
    296.     15.    356.     17.    527.     20.    870.     26.   1399.     33.
   2327.     42.   3420.     51.   4519.     59.   5757.     67.   6814.     72.
   7278.     75.   7163.     74.   6513.     71.   5255.     64.   4071.     56.
   2911.     47.   1899.     38.   1265.     31.    795.     25.    586.     21.
    454.     19.    395.     17.    311.     15.    276.     15.    263.     14.
    232.     13.    225.     13.    204.     13.    212.     13.    169.     11.
    161.     11.    193.     12.    169.     11.    156.     11.    184.     12.
    145.     11.    163.     11.    153.     11.    134.     10.    134.     10.
    150.     11.    154.     11.    154.     11.    146.     11.    128.     10.
    135.     11.    153.     11.    148.     11.    156.     11.    146.     11.
    142.     11.    132.     10.    140.     11.    157.     11.    158.     11.
    148.     11.    138.     11.    122.     10.    122.     10.    149.     11.
    122.     10.    138.     11.    145.     11.    135.     11.    138.     11.
    129.     10.    128.     10.    150.     11.    133.     10.    130.     10.
    143.     11.    134.     11.    158.     11.    155.     11.    147.     11.
    164.     12.    180.     12.    177.     12.    227.     14.    263.     15.
    330.     16.    427.     19.    452.     19.    523.     21.    534.     21.
    479.     20.    445.     19.    368.     17.    303.     16.    238.     14.
    211.     13.    166.     12.    180.     12.    162.     12.    151.     11.
    156.     11.    134.     11.    138.     11.    155.     11.    155.     11.
    126.     10.    140.     11.    143.     11.    152.     11.    157.     11.
    134.     10.    153.     11.    132.     10.    151.     11.    199.     13.
    228.     14.    264.     15.    357.     17.    416.     18.    512.     21.
    621.     23.    707.     24.    725.     24.    733.     25.    703.     24.
    644.     23.    531.     21.    402.     18.    325.     16.    257.     15.
    197.     13.    186.     12.    164.     12.    162.     12.    174.     12.
    139.     11.    149.     11.    135.     11.    135.     11.    132.     10.
    142.     11.    139.     11.    132.     10.    138.     11.    123.     10.
    129.     10.    138.     11.    138.     11.    131.     10.    144.     11.
    139.     11.    143.     11.    150.     11.    137.     11.    182.     12.
    180.     12.    201.     13.    206.     13.    174.     12.    173.     12.
    184.     12.    183.     12.    167.     12.    164.     12.    142.     11.
    137.     11.    135.     11.    137.     11.    136.     11.    138.     11.
    132.     10.    135.     11.    144.     11.    129.     10.    126.     10.
    154.     11.    133.     11.    127.     10.    132.     10.    121.     10.
    141.     11.    139.     11.    128.     10.    128.     10.    131.     10.
    120.     10.    124.     10.    132.     10.    129.     10.    113.     10.
    123.     10.    121.     10.    129.     10.    145.     11.    126.     10.
    125.     10.    115.     10.    124.     10.    134.     11.    139.     11.
    119.     10.    138.     11.    123.     10.    134.     11.    115.     10.
    138.     11.    126.     10.    121.     10.    132.     10.    111.     10.
    125.     10.    136.     11.    133.     11.    134.     11.    118.     10.
    124.     10.    128.     10.    138.     11.    130.     10.    115.     10.
    129.     10.    131.     10.    137.     11.    124.     10.    125.     10.
    134.     11.    121.     10.    140.     11.    120.     10.    134.     11.
    138.     11.    130.     10.    125.     10.    138.     11.    139.     11.
    131.     10.    142.     11.    121.     10.    127.     10.    146.     11.
    135.     11.    130.     10.    132.     10.    131.     10.    128.     10.
    123.     10.    125.     10.    130.     10.    135.     10.    131.     10.
    138.     10.    125.     10.    117.     10.    126.     10.    126.     10.
    154.     11.    139.     10.    131.     10.    126.     10.    129.     10.
    127.     10.    129.     10.    120.     10.    127.     10.    137.     10.
    132.     10.    119.     10.    129.     10.    135.     10.    119.     10.
    116.      9.    130.     10.    133.     10.    122.     10.    128.     10.
    139.     10.    130.     10.    128.     10.    127.     10.    124.     10.
    157.     11.    146.     11.    138.     10.    130.     10.    141.     10.
    129.     10.    146.     11.    162.     11.    159.     11.    159.     11.
    152.     11.    150.     11.    147.     11.    143.     11.    127.     10.
    135.     10.    141.     10.    153.     11.    163.     11.    138.     10.
    149.     11.    163.     11.    174.     12.    177.     12.    179.     12.
    192.     12.    187.     12.    173.     12.    169.     11.    150.     11.
    136.     10.    152.     11.    150.     11.    139.     10.    131.     10.
    135.     10.    133.     10.    130.     10.    143.     11.    131.     10.
    139.     10.    128.     10.    123.     10.    124.     10.    142.     10.
    120.     10.    133.     10.    115.      9.    130.     10.    142.     11.
    142.     10.    147.     11.    120.     10.    128.     10.    112.      9.
    148.     11.    125.     10.    136.     10.    139.     10.    132.     10.
    122.     10.    129.     10.    137.     10.    140.     10.    136.     10.
    134.     10.    121.     13.    118.     10.    125.     10.    129.     10.
    145.     11.    137.     10.    124.     10.    130.     10.    135.     10.
    133.     10.    125.     10.    119.     10.    113.      9.    127.     10.
    126.     10.    137.     10.    125.     10.    122.     10.    128.     10.
    124.     10.    129.     10.    126.     10.    138.     10.    137.     10.
    122.     10.    119.     10.    123.     10.    126.     10.    128.     10.
    123.     10.    125.     10.    126.     10.    122.     10.    129.     10.
    117.     10.    117.     10.    130.     10.    124.     10.    139.     10.
    142.     11.    116.     10.    119.     10.    133.     10.    114.     10.
    126.     10.    132.     10.    123.     10.    128.     10.    123.     10.
    136.     10.    128.     10.    133.     10.    139.     10.    143.     11.
    126.     10.    133.     10.    148.     11.    143.     11.    163.     11.
    179.     12.    160.     11.    193.     12.    200.     13.    213.     13.
    232.     13.    288.     15.    304.     15.    336.     16.    349.     16.
    349.     16.    358.     17.    363.     17.    360.     17.    315.     16.
    282.     15.    251.     14.    224.     13.    212.     13.    178.     12.
    182.     12.    158.     11.    141.     11.    148.     11.    159.     11.
    169.     12.    145.     11.    136.     10.    148.     11.    147.     11.
    141.     11.    145.     11.    150.     11.    155.     11.    179.     12.
    203.     13.    244.     14.    275.     15.    319.     16.    410.     18.
    515.     20.    630.     22.    800.     25.    977.     27.   1141.     30.
   1268.     31.   1429.     33.   1510.     34.   1616.     35.   1609.     35.
   1585.     35.   1488.     34.   1375.     32.   1258.     31.   1077.     29.
    874.     26.    732.     24.    572.     21.    425.     18.    367.     17.
    316.     16.    258.     14.    221.     13.    202.     13.    196.     12.
    176.     12.    157.     11.    166.     11.    157.     11.    142.     11.
    146.     11.    149.     11.    136.     10.    123.     10.    129.     10.
    127.     10.    140.     11.    140.     11.    134.     10.    125.     10.
    135.     10.    147.     11.    136.     10.    137.     10.    140.     11.
    116.     10.    122.     10.    131.     10.    140.     11.    138.     11.
    122.     10.    120.     10.    122.     10.    141.     11.    137.     10.
    142.     11.    136.     10.    144.     11.    152.     11.    151.     11.
    150.     11.    149.     11.    148.     11.    142.     11.    146.     11.
    144.     11.    146.     11.    153.     11.    136.     10.    133.     10.
    135.     10.    132.     10.    140.     11.    145.     11.    148.     11.
    129.     10.    117.     10.    129.     10.    122.     10.    104.      9.
    128.     10.    134.     10.    132.     10.    119.     10.    131.     10.
    121.     10.    120.     10.    117.     10.    108.      9.    115.     10.
    122.     10.    135.     10.    123.     10.    126.     10.    131.     10.
    128.     10.    128.     10.    146.     11.    143.     11.    123.     10.
    125.     10.    131.     10.    132.     11.    140.     11.    145.     11.
    139.     11.    123.     10.    143.     11.    139.     11.    139.     11.
    158.     12.    141.     11.    141.     11.    128.     11.    131.     11.
    150.     11.    144.     11.    150.     11.    125.     10.    144.     11.
    133.     11.    129.     11.    119.     10.    124.     10.    127.     11.
    124.     10.    118.     10.    147.     11.    144.     11.    130.     11.
    129.     11.    130.     11.    129.     11.    129.     11.    132.     11.
    128.     11.    110.     10.    111.     10.    123.     10.    133.     11.
    128.     11.    137.     11.    139.     11.    118.     10.    115.     10.
    138.     11.    135.     11.    132.     11.    135.     11.    141.     11.
    175.     12.    191.     13.    179.     12.    225.     14.    289.     16.
    317.     16.    422.     19.    507.     20.    635.     23.    805.     26.
    935.     28.   1051.     29.   1216.     31.   1352.     33.   1524.     35.
   1624.     36.   1661.     37.   1725.     37.   1791.     38.   1661.     37.
   1547.     35.   1452.     34.   1291.     32.   1121.     30.    956.     28.
    818.     26.    660.     23.    552.     21.    443.     19.    391.     18.
    294.     16.    258.     15.    219.     14.    192.     13.    207.     13.
    170.     12.    185.     13.    186.     13.    165.     12.    167.     12.
    132.     11.    158.     12.    158.     12.    131.     11.    123.     10.
    125.     10.    131.     11.    149.     11.    148.     11.    137.     11.
    143.     11.    139.      9.    127.     11.    134.     11.    145.     11.
    114.     10.    114.     10.    121.     11.    120.     11.    114.     10.
    126.     11.    131.     11.    129.     11.    138.     11.    118.     10.
    137.     11.    122.     11.    124.     11.    134.     11.    112.     10.
    125.     11.    117.     10.    119.     10.    125.     11.    122.     11.
    105.     10.    132.     11.    126.     11.    113.     10.    122.     11.
    119.     10.    124.     11.    132.     11.    144.     11.    127.     11.
    117.     10.    113.     10.    107.     10.    126.     11.    125.     11.
    112.     10.    108.     10.    123.     11.    126.     11.    129.     11.
    124.     11.    125.     11.    107.     10.    120.     11.    103.     10.
    135.     11.    101.     10.    111.     10.    123.     11.    153.     12.
    135.     11.    124.     11.    111.     10.    124.     11.    117.     10.
    124.     11.    131.     11.    118.     10.    135.     11.    141.     11.
    130.     11.    130.     11.    121.     11.    130.     11.    150.     12.
    135.     11.    128.     11.    132.     11.    143.     11.    129.     11.
    164.     12.    181.     13.    173.     12.    208.     14.    206.     14.
    222.     14.    261.     15.    295.     16.    360.     18.    349.     17.
    447.     20.    507.     21.    550.     22.    624.     23.    658.     24.
    753.     25.    777.     26.    855.     27.    883.     27.    896.     28.
    968.     29.    935.     28.    882.     27.    920.     28.    814.     26.
    801.     26.    690.     24.    582.     22.    551.     21.    431.     19.
    411.     18.    368.     17.    289.     15.    276.     15.    231.     14.
    226.     14.    214.     13.    199.     13.    176.     12.    175.     12.
    145.     11.    153.     11.    139.     11.    147.     11.    160.     12.
    121.     10.    135.     11.    140.     11.    140.     11.    158.     11.
    147.     11.    128.     10.    137.     11.    134.     11.    123.     10.
    138.     11.    134.     11.    125.     10.    114.     10.    130.     10.
    126.     10.    132.     11.    130.     10.    136.     11.    129.     10.
    125.     10.    110.     10.    110.     10.    110.     10.    121.     10.
    137.     11.    117.     10.    104.      9.    152.     11.    129.     10.
    115.     10.    116.     10.    123.     10.    125.     10.    114.     10.
    128.     10.    143.     11.    122.     10.    128.     10.    128.     10.
    123.     10.    110.     10.    126.     10.    112.     10.    113.     10.
    129.     10.    130.     10.    118.     10.    126.     10.    122.     10.
    127.     10.    116.     10.    126.     10.    141.     11.    136.     11.
    136.     11.    127.     10.    127.     10.    125.     10.    119.     10.
    130.     10.    123.     10.    132.     11.    111.     10.    131.     10.
    113.     10.    137.     11.    108.     10.    108.     10.    125.     10.
    119.     10.    125.     10.    113.     10.    127.     10.    131.     11.
    113.     10.    117.     10.    117.     10.    130.     10.    122.     10.
    150.     11.    127.     15.    127.     10.    124.     10.    118.     10.
    127.     10.    132.     10.    130.     10.    126.     10.    133.     10.
    135.     10.    126.     10.    128.     10.    125.     10.    131.     10.
    132.     10.    136.     11.    122.     10.    144.     11.    129.     10.
    127.     10.    141.     11.    126.     10.    136.     11.    126.     10.
    138.     11.    132.     10.    135.     10.    139.     11.    139.     11.
    134.     10.    137.     11.    131.     10.    126.     10.    136.     11.
    130.     10.    130.     10.    142.     11.    109.     10.    128.     10.
    139.     11.    117.     10.    128.     10.    137.     11.    116.     10.
    131.     10.    129.     10.    129.     10.    139.     11.    126.     10.
    133.     10.    129.     10.    158.     11.    137.     11.    128.     10.
    125.     10.    131.     10.    123.     10.    128.     10.    125.     10.
    135.     11.    126.     10.    127.     10.    124.     10.    134.     10.
    131.     10.    142.     11.    135.     10.    115.     10.    124.     10.
    119.     10.    126.     10.    147.     11.    131.     10.    142.     11.
    138.     11.    131.     10.    133.     10.    128.     10.    132.     10.
    125.     10.    128.     10.    144.     11.    148.     11.    131.     10.
    129.     10.    138.     11.    133.     10.    123.     10.    118.     10.
    134.     10.    113.     10.    140.     11.    142.     11.    125.     10.
    117.     10.    121.     10.    134.     10.    133.     10.    135.     11.
    129.     10.    133.      9.    127.     10.    138.     11.    142.     11.
    129.     10.    133.     10.    139.     11.    129.     10.    131.     10.
    139.     11.    147.     11.    146.     11.    140.     11.    148.     11.
    140.     11.    155.     11.    184.     12.    182.     12.    175.     12.
    197.     13.    202.     13.    208.     13.    207.     13.    226.     13.
    246.     14.    261.     14.    278.     15.    289.     15.    296.     15.
    296.     15.    305.     16.    316.     16.    317.     16.    331.     16.
    321.     16.    328.     16.    308.     16.    324.     16.    332.     16.
    305.     16.    311.     16.    293.     15.    276.     15.    278.     15.
    251.     14.    239.     14.    235.     14.    229.     14.    213.     13.
    201.     13.    188.     12.    174.     12.    163.     12.    154.     11.
    138.     11.    152.     11.    156.     11.    144.     11.    139.     11.
    127.     10.    121.     10.    140.     11.    138.     11.    153.     11.
    130.     10.    139.     11.    138.     11.    143.     11.    135.     11.
    135.     11.    144.     11.    138.     11.    133.     10.    150.     11.
    137.     11.    132.     10.    133.     10.    126.     10.    133.     11.
    143.     11.    133.     10.    123.     10.    125.     10.    131.     10.
    121.     10.    131.     10.    139.     11.    133.     10.    148.     11.
    144.     11.    129.     10.    125.     10.    131.     10.    126.     10.
    127.     10.    134.     10.    134.     11.    146.     11.    151.     11.
    145.     11.    134.     11.    124.     10.    142.     11.    123.     10.
    127.     10.    138.     11.    141.     11.    148.     11.    143.     11.
    151.     11.    140.     11.    127.     10.    144.     11.    134.     11.
    132.     11.    131.     11.    131.     11.    139.     11.    125.     10.
    127.     10.    126.     10.    120.     10.    138.     11.    145.     11.
    134.     11.    132.     11.    133.     11.    143.     11.    130.     11.
    128.     11.    120.     10.    123.     10.    137.     11.    119.     10.
    137.     11.    146.     11.    130.     11.    130.     11.    138.     11.
    147.     11.    152.     11.    134.     11.    140.     11.    149.     11.
    119.     10.    130.     11.    128.     11.    135.     11.    144.     11.
    130.     11.    141.     11.    135.     11.    134.     11.    136.     11.
    138.     11.    121.     10.    141.     11.    131.     11.    126.     10.
    150.     11.    140.     11.    132.     11.    138.     11.    136.     11.
    159.     12.    159.     12.    145.     11.    146.     11.    159.     12.
    164.     12.    148.     11.    154.     11.    158.     12.    156.     12.
    167.     12.    157.     12.    160.     12.    173.     12.    174.     12.
    175.     12.    189.     13.    186.     12.    200.     13.    217.     13.
    225.     14.    237.     14.    282.     15.    286.     15.    288.     15.
    338.     17.    334.     16.    325.     16.    373.     17.    384.     18.
    438.     19.    447.     19.    469.     19.    518.     20.    520.     20.
    552.     21.    556.     21.    605.     22.    624.     22.    659.     23.
    650.     23.    675.     23.    709.     24.    730.     24.    716.     24.
    741.     24.    738.     24.    726.     24.    724.     24.    701.     24.
    686.     23.    677.     23.    646.     23.    630.     22.    641.     23.
    604.     22.    568.     21.    543.     21.    520.     20.    480.     20.
    469.     20.    424.     19.    398.     18.    359.     17.    347.     17.
    345.     17.    318.     16.    288.     16.    291.     16.    294.     16.
    280.     15.    272.     15.    244.     14.    229.     14.    221.     14.
    224.     14.    238.     14.    219.     14.    208.     13.    192.     13.
    195.     13.    203.     13.    210.     13.    210.     13.    210.     13.
    199.     13.    199.     13.    203.     13.    196.     13.    188.     13.
    195.     13.    194.     13.    194.     13.    187.     13.    171.     12.
    185.     13.    190.     13.    177.     12.    163.     12.    168.     12.
    166.     12.    168.     12.    171.     12.    170.     12.    165.     12.
    149.     12.    177.     13.    173.     12.    162.     12.    168.     12.
    173.     12.    179.     13.    150.     12.    169.     12.    165.     12.
    165.     12.    163.     12.    162.     12.    157.     12.    155.     12.
    150.     12.    157.     12.    188.     13.    166.     12.    156.     12.
    165.     12.    165.     12.    172.     12.    169.     12.    165.     12.
    160.     12.    173.     12.    168.     12.    171.     12.    155.     12.
    170.     12.    166.     10.    153.     12.    141.     12.    152.     12.
    156.     12.    152.     12.    165.     13.    159.     12.    162.     12.
    162.     13.    163.     13.    169.     13.    166.     13.    157.     12.
    146.     12.    157.     12.    175.     13.    178.     13.    163.     13.
    158.     12.    153.     12.    149.     12.    152.     12.    167.     13.
    169.     13.    169.     13.    163.     13.    154.     12.    166.     13.
    159.     12.    160.     12.    169.     13.    166.     13.    175.     13.
    173.     13.    167.     13.    167.     13.    166.     13.    176.     13.
    179.     13.    179.     13.    183.     13.    185.     13.    186.     13.
    176.     13.    166.     13.    170.     13.    168.     13.    183.     13.
    202.     14.    192.     13.    176.     13.    172.     13.    182.     13.
    190.     13.    181.     13.    169.     13.    175.     13.    171.     13.
    163.     13.    177.     13.    174.     13.    171.     13.    183.     13.
    186.     13.    177.     13.    175.     13.    177.     13.    179.     13.
    186.     13.    187.     13.    171.     13.    167.     13.    167.     13.
    177.     13.    194.     13.    194.     13.    177.     13.    176.     13.
    177.     13.    172.     13.    190.     13.    190.     13.    178.     13.
    184.     13.    194.     13.    193.     13.    190.     13.    213.     14.
    217.     14.    201.     14.    192.     13.    195.     13.    199.     14.
    198.     14.    198.     14.    208.     14.    216.     14.    206.     14.
    206.     14.    216.     15.    200.     14.    188.     14.    214.     14.
    227.     15.    209.     14.    217.     15.    234.     15.    214.     14.
    206.     14.    228.     15.    241.     15.    229.     15.    245.     15.
    238.     15.    228.     15.    223.     15.    223.     15.    236.     15.
    250.     15.    234.     15.    240.     15.    245.     15.    253.     15.
    260.     16.    268.     16.    232.     15.    224.     15.    241.     15.
    252.     15.    272.     16.    245.     15.    243.     15.    256.     16.
    253.     15.    244.     15.    234.     15.    245.     15.    242.     15.
    250.     15.    249.     15.    274.     16.    264.     16.    253.     15.
    261.     16.    267.     16.    262.     16.    253.     16.    273.     16.
    285.     16.    281.     16.    274.     16.    279.     16.    270.     16.
    260.     16.    273.     16.    263.     16.    289.     16.    303.     17.
    295.     16.    276.     16.    274.     16.    264.     16.    281.     16.
    289.     16.    276.     16.    290.     16.    300.     17.    287.     16.
    301.     17.    303.     17.    306.     17.    291.     16.    275.     16.
    308.     17.    300.     17.    324.     17.    318.     17.    302.     17.
    291.     16.    321.     17.    333.     17.    294.     16.    306.     17.
    295.     16.    322.     17.    325.     17.    298.     17.    308.     17.
    323.     17.    341.     18.    329.     17.    331.     17.    324.     17.
    328.     17.    320.     17.    362.     18.    348.     18.    319.     17.
    342.     18.    360.     26.    361.     26.    383.     26.    393.     27.
    413.     27.    338.     25.    364.     26.    337.     25.    386.     27.
    372.     26.    368.     26.    374.     26.    365.     26.    360.     26.
    342.     25.    371.     26.    416.     27.    390.     27.    370.     26.
    339.     25.    357.     26.    393.     27.    414.     27.    370.     26.
    396.     27.    389.     27.    370.     26.    384.     27.    393.     27.
    418.     27.    386.     27.    420.     28.    426.     28.    365.     26.
    356.     26.    415.     27.    365.     26.    388.     27.    422.     28.
    400.     27.    398.     27.    384.     27.    395.     27.    376.     26.
    415.     27.    428.     28.    441.     28.    445.     28.    432.     28.
    432.     28.    426.     28.    421.     28.    423.     28.    421.     28.
    416.     27.    456.     29.    431.     28.    414.     27.    447.     28.
    466.     29.    439.     28.    458.     29.    455.     29.    460.     29.
    445.     28.    478.     29.    470.     29.    475.     29.    464.     29.
    488.     29.    445.     28.    469.     29.    473.     29.    465.     29.
    449.     28.    451.     28.    464.     29.    475.     29.    485.     29.
    494.     30.    463.     29.    459.     29.    450.     28.    486.     29.
    423.     28.    491.     29.    486.     29.    532.     30.    569.     31.
    506.     30.    513.     30.    496.     30.    481.     29.    466.     29.
    492.     29.    525.     30.    525.     30.    498.     30.    527.     30.
    612.     32.      0.      0.      0.      0.      0.      0.      0.      0.
